time,density,scale_factor,hubble
-3.141592653589793,22.0,0.21391788958093144,1.3211788150079535
-3.110018858076328,20.27333300394253,0.2228413951399437,2.7397634716082733
-3.0784450625628628,15.79399388213414,0.2524715597363179,5.209675431308647
-3.046871267049397,10.7587173404822,0.30589909841960955,6.653880858118187
-3.015297471535932,6.935210945471329,0.3810031866927979,6.223843360648596
-2.983723676022467,4.84920824653219,0.45564124332953293,3.94556931903009
-2.9521498805090016,4.116572013878217,0.4945276594844367,1.193302713400657
-2.9205760849955364,4.143704008622992,0.4929059753917571,-0.7301642244779235
-2.889002289482071,4.522720377298693,0.4718006956494833,-1.5854825376318664
-2.8574284939686057,5.068633914640222,0.44566957147122926,-1.8634408200569512
-2.8258546984551405,5.724626003992067,0.4193579555005427,-1.950035587155182
-2.7942809029416753,6.48423474132297,0.39402981196966447,-1.9860608175986743
-2.76270710742821,7.356184404264433,0.3699407238655243,-2.00637258118854
-2.7311333119147445,8.3533274111845,0.34715921188767557,-2.017821999256417
-2.6995595164012793,9.490011426905768,0.32570548935568544,-2.0218237703311766
-2.667985720887814,10.781528854359715,0.30557531704545815,-2.0189833257407734
-2.636411925374349,12.243925257833881,0.2867464902526987,-2.00980935692239
-2.604838129860884,13.893819373392725,0.2691829953956886,-1.9947891082685023
-2.573264334347418,15.748177688654915,0.2528385509239197,-1.9743866741504956
-2.5416905388339535,17.82403321328702,0.23765965066145409,-1.9490370660602425
-2.510116743320488,20.138144919715486,0.223588115158495,-1.9191427535461754
-2.4785429478070227,22.70659658712601,0.21056317652706966,-1.8850725046977665
-2.4469691522935575,25.54433599617754,0.19852314047831326,-1.8471618886663306
-2.4153953567800923,28.664658040639072,0.18740667836725375,-1.8057148911488539
-2.383821561266627,32.07863833877349,0.17715380434842942,-1.7610062138738591
-2.3522477657531615,35.79452726650591,0.16770659068256755,-1.71328393721674
-2.3206739702396963,39.81711788094335,0.1590096696622195,-1.6627723153958436
-2.289100174726231,44.14710480278846,0.15101056485057543,-1.6096745458086208
-2.257526379212766,48.780454589636655,0.14365988822043194,-1.5541754095294407
-2.225952583699301,53.707811238805604,0.13691143387527244,-1.4964437212507133
-2.194378788185835,58.91396296712458,0.13072219363093637,-1.436634556661629
-2.16280499267237,64.37739807724637,0.12505231497371344,-1.3748912459281686
-2.131231197158905,70.06997829548897,0.11986501782588875,-1.3113471357393405
-2.0996574016454397,75.95675724251984,0.11512648311864333,-1.2461271311131659
-2.0680836061319745,81.99596951070401,0.11080572333763035,-1.1793490332369088
-2.036509810618509,88.13921207366771,0.10687444289671479,-1.1111246921464069
-2.0049360151050437,94.3318344331543,0.10330689433521681,-1.0415609938537993
-1.9733622195915785,100.51354710351696,0.1000797348517748,-0.9707607012148787
-1.9417884240781134,106.61924994047865,0.09717188651860817,-0.8988231668222674
-1.910214628564648,112.58007274123538,0.09456440260658819,-0.8258449348226921
-1.8786408330511828,118.32461088039956,0.0922403417455551,-0.751920246994408
-1.8470670375377176,123.7803289861313,0.0901846511050334,-0.6771414668239248
-1.8154932420242522,128.8750963452992,0.08838405937426215,-0.6015994337770186
-1.783919446510787,133.5388094215171,0.08682698001976503,-0.525383758522284
-1.7523456509973219,137.70505012646245,0.0855034250812425,-0.4485830685647078
-1.7207718554838565,141.31272379839697,0.08440492961441297,-0.371285212596322
-1.6891980599703913,144.30761861220284,0.08352448678816114,-0.29357743087329113
-1.657624264456926,146.6438286416052,0.08285649358145845,-0.2155464980816116
-1.6260504689434607,148.28498612759927,0.08239670699379198,-0.13727884445085123
-1.5944766734299956,149.20525461387297,0.08214221067389892,-0.05886066030848147
-1.5629028779165302,149.3900432486794,0.08209139187948354,0.019622011169671258
-1.531329082403065,148.83641331397484,0.08224392870038943,0.09808318857234151
-1.4997552868895996,147.5531603738048,0.08260078750528495,0.17643686998639221
-1.4681814913761344,145.56056867403817,0.08316423060366794,0.25459694969256746
-1.4366076958626692,142.88984785068808,0.08393783414756661,0.33247712963676457
-1.4050339003492038,139.58227487738358,0.08492651632740772,0.4099908213494472
-1.3734601048357387,135.68807580564146,0.08613657594069428,0.4870510337305565
-1.3418863093222735,131.26509161243487,0.08757574142653171,0.5635702417411608
-1.310312513808808,126.37727988336074,0.08925323045918036,0.6394602305425419
-1.278738718295343,121.09310879890668,0.09117982017430737,0.7146319089896627
-1.2471649227818777,115.48390180296902,0.09336792805582392,0.7889950856114913
-1.2155911272684123,109.62219044186449,0.0958317034308965,0.8624581992891183
-1.1840173317549472,103.58012936147136,0.09858712939561311,0.9349279957685077
-1.1524435362414818,97.42802167831385,0.10165213481099247,1.0063091399183017
-1.1208697407280166,91.23299534982212,0.10504671575245396,1.0765037522716203
-1.0892959452145514,85.05786228799772,0.10879306544549268,1.145410856895457
-1.0577221497010862,78.96018235278035,0.1129157112513434,1.2129257260523205
-1.0261483541876206,72.99154458511752,0.11744165664841473,1.278939105525025
-0.9945745586741555,67.19706861265172,0.12240052535116602,1.3433363029798286
-0.9630007631606903,61.61512052988113,0.12782470367333776,1.4059961205146723
-0.9314269676472251,56.277230074198634,0.13374947592429828,1.466789611832662
-0.8998531721337599,51.20818983900751,0.1402131459646914,1.5255786446603679
-0.8682793766202943,46.426312726226044,0.147257135971862,1.5822142506096062
-0.8367055811068291,41.94382087976724,0.1549260509027111,1.6365347483684858
-0.805131785593364,37.767337902790665,0.16326769401717176,1.6883636328555562
-0.7735579900798988,33.89845611144821,0.17233301507314172,1.7375072340357023
-0.7419841945664336,30.334351725377584,0.18217596837997918,1.7837521660828715
-0.7104103990529684,27.068423011626095,0.19285325280472518,1.8268626124711491
-0.6788366035395028,24.09092923736949,0.20442390014512374,1.8665775277337109
-0.6472628080260376,21.389611600944992,0.21694867222720718,1.9026078846602943
-0.6156890125125725,18.95028086824649,0.2304892210594691,1.9346341592180225
-0.5841152169991073,16.757360036367622,0.2451069610692667,1.9623043265922746
-0.5525414214856421,14.794373806094688,0.2608615989340977,1.9852327412180757
-0.5209676259721765,13.044379834713864,0.27780926636929426,2.0030003896085864
-0.4893938304587113,11.490339564402051,0.2960002065991637,2.0151571307515317
-0.45782003494524615,10.115428819767809,0.31547597889043605,2.02122666145448
-0.42624623943178097,8.903290314433164,0.33626617074378734,2.0207150402633127
-0.3946724439183158,7.83823170232733,0.35838464756558874,2.013123638496376
-0.3630986484048506,6.905373878158354,0.3818254277849372,1.9979673129584679
-0.331524852891385,6.09075491309828,0.40655834863967216,1.9747983547721601
-0.2999510573779198,5.38139535639358,0.4325247820593928,1.9432363045490595
-0.26837726186445465,4.765330697264364,0.45963376370607556,1.9030029944451297
-0.23680346635098948,4.231616621255206,0.48775899663934885,1.8539611835635756
-0.2052296708375243,3.770312366277769,0.5167372617841715,1.796153968879618
-0.17365587532405868,3.3724470365893198,0.5463687817965518,1.7298409521940186
-0.1420820798105935,3.029973212440998,0.5764200135592602,1.655526199951195
-0.11050828429712833,2.735711636712784,0.6066291661119808,1.5739726889903163
-0.07893448878366316,2.4832901979260944,0.6367144536977387,1.4861985097928492
-0.047360693270197984,2.2670798849915936,0.6663847257016682,1.3934517772764032
-0.015786897756732365,2.082129879869254,0.6953517267965414,1.2971638869719593
0.01578689775673281,1.924103491274837,0.7233429149869234,1.1988840314988614
0.047360693270197984,1.789216222153692,0.7501135873800869,1.1002010661170365
0.07893448878366316,1.674176908468875,0.7754570917034037,1.0026611027597554
0.11050828429712833,1.5761325665211718,0.799212144203899,0.9076900085149265
0.14208207981059395,1.4926173379389178,0.8212666829897908,0.8165290670943185
0.17365587532405913,1.421505721551373,0.8415581684582851,0.7301896843791466
0.2052296708375243,1.3609701245869303,0.860070694131888,0.6494298133876392
0.23680346635098948,1.3094426465759375,0.8768296059201506,0.5747515212269259
0.26837726186445465,1.2655809224742285,0.8918945004214897,0.5064164972699128
0.2999510573779198,1.2282377915384293,0.9053514839691741,0.44447470363065167
0.33152485289138545,1.1964345204337068,0.9173054593602363,0.38880086405503256
0.3630986484048506,1.1693372884820392,0.9278730189619486,0.3391338835261212
0.3946724439183158,1.1462366359507326,0.9371763126594694,0.29511526141809924
0.42624623943178097,1.1265295794808117,0.9453380660028564,0.2563237672639121
0.45782003494524615,1.1097041093482503,0.9524777705352667,0.22230482189991704
0.48939383045871176,1.0953257989277487,0.9587089622580794,0.19259400272332824
0.5209676259721769,1.0830262756342037,0.9641374425568512,0.16673480191460324
0.5525414214856421,1.0724933232966454,0.9688602700194991,0.14429121345941434
0.5841152169991073,1.063462407261878,0.9729653510049061,0.1248559517322217
0.6156890125125725,1.0557094347068947,0.9765314718922837,0.10805516945257937
0.6472628080260376,1.0490445830735518,0.9796286389441473,0.09355050266501375
0.6788366035395033,1.043307048829444,0.9823186171859758,0.08103917169384955
0.7104103990529684,1.0383605866589634,0.9846555842036075,0.07025274383909469
0.7419841945664336,1.0340897255668644,0.986686836420517,0.06095503816810409
0.7735579900798988,1.0303965631886298,0.9884535034772811,0.05293953794495088
0.805131785593364,1.0271980528653966,0.9899912407243945,0.0460265780892032
0.8367055811068296,1.0244237098178142,0.9913308808729816,0.04006049524440943
0.8682793766202943,1.0220136731331633,0.9924990340177039,0.034906865681958554
0.8998531721337599,1.0199170693706843,0.9935186310882123,0.030449909206760235
0.9314269676472255,1.0180906315070002,0.9944094098059846,0.02659010285146373
0.9630007631606903,1.0164975338044084,0.9951883448631893,0.023242023850426636
0.9945745586741559,1.0151064091047814,0.9958700256632234,0.020332424847551715
1.0261483541876206,1.0138905201404267,0.9964669858577286,0.017798533554624994
1.0577221497010862,1.0128270608125935,0.9969899893044636,0.01558656255893965
1.0892959452145519,1.011896567111995,0.9974482771210164,0.01365041144931757
1.1208697407280166,1.0110824205283568,0.9978497803428801,0.011950541953298711
1.1524435362414822,1.0103704294933689,0.9982013023980076,0.010453006662575365
1.184017331754947,1.0097484766906093,0.9985086752443584,0.009128612666255358
1.2155911272684126,1.0092062220061306,0.9987768926232944,0.007952202656109304
1.2471649227818782,1.0087348525360451,0.9990102234868636,0.006902037567989205
1.278738718295343,1.008326872457557,0.9992123082777212,0.005959266412642218
1.3103125138088085,1.0079759267462998,0.9993862403862239,0.005107470519169309
1.3418863093222733,1.0076766537191346,0.9995346347847601,0.004332270898019857
1.3734601048357389,1.0074245622266,0.9996596855459982,0.0036209887888027426
1.4050339003492045,1.0072159300378407,0.999763213688722,0.002962350672260757
1.4366076958626692,1.0070477205744297,0.999846706560224,0.0023462300874796125
1.4681814913761349,1.0069175156764556,0.9999113497549725,0.0017634195063046469
1.4997552868895996,1.0068234625404826,0.9999580523823075,0.0012054262815729456
1.5313290824030652,1.00676423336838,0.9999874663277716,0.0006642873112750426
1.56290287791653,1.006738996620711,1.0,0.00013239755536205184
1.5944766734299956,1.006747399089225,0.9999958269144505,-0.000397652087891869
1.6260504689434612,1.0067895582998097,0.9999748893333722,-0.0009332317866745281
1.657624264456926,1.006866065039122,0.9999368970550575,-0.0014818287635649104
1.6891980599703915,1.0069779960736494,0.9998813213214284,-0.002051206340954896
1.7207718554838562,1.0071269374075926,0.9998073836882266,-0.0026495702012936722
1.7523456509973219,1.0073150187141948,0.9997140395733608,-0.003285746214669619
1.7839194465107875,1.0075449598828043,0.9995999560631035,-0.003969374496784693
1.8154932420242522,1.0078201309604469,0.9994634834095931,-0.0047111247919517825
1.8470670375377178,1.008144627142292,0.9993026194931015,-0.005522938834911422
1.8786408330511826,1.0085233608915984,0.9991149663454022,-0.006418306039329207
1.9102146285646482,1.0089621737594587,0.9988976776328844,-0.0074125796977389975
1.9417884240781138,1.0094679710428123,0.99864739577647,-0.008523341863701947
1.9733622195915785,1.0100488830828205,0.9983601771368433,-0.009770826225095902
2.004936015105044,1.0107144577846716,0.9980314034155053,-0.011178409565184365
2.036509810618509,1.0114758898571932,0.9976556771132151,-0.012773183832686325
2.0680836061319745,1.012346293353126,0.9972266985476951,-0.014586622375195629
2.09965740164544,1.0133410253696613,0.9967371215648808,-0.016655355480509795
2.131231197158905,1.0144780702799976,0.9961783846893638,-0.019022071931570506
2.1628049926723705,1.0157784956520488,0.995540514062801,-0.021736564678376116
2.194378788185835,1.0172669931181821,0.9948118941352817,-0.02485693976055954
2.225952583699301,1.0189725199452744,0.993979001737425,-0.028451007980465324
2.2575263792127664,1.0209290599804568,0.9930260989204683,-0.03259787810415705
2.289100174726231,1.0231765260860648,0.9919348798808422,-0.0373897679651449
2.320673970239697,1.0257618302076708,0.9906840674880276,-0.04293404495607667
2.3522477657531615,1.0287401519308075,0.9892489555528177,-0.0493554989404556
2.383821561266627,1.032176441873015,0.9876008942004809,-0.056798837200135566
2.415395356780092,1.0361472026341698,0.9857067178040655,-0.06543137088679268
2.4469691522935575,1.040742597402339,0.9835281182128648,-0.0754458334191637
2.478542947807023,1.0460689448014662,0.9810209708826518,-0.08706323088214822
2.510116743320488,1.0522516682883842,0.9781346284538661,-0.10053557009025896
2.5416905388339535,1.0594387794723512,0.9748112058589511,-0.1161482391101164
2.573264334347418,1.0678049872406972,0.9709848936967231,-0.13422172607743096
2.604838129860884,1.077556538611307,0.9665813528126606,-0.15511225609805032
2.6364119253743494,1.0889369129497992,0.961517262875331,-0.17921082230515598
2.667985720887814,1.1022335108086183,0.9557001199098152,-0.2069402434904739
2.69955951640128,1.1177855378734225,0.949028386004755,-0.2387534040822102
2.7311333119147445,1.1359938386219643,0.9413919014433815,-0.2751727137362348
2.76270710742821,1.157339035117164,0.932670295288232,-0.3172033331624279
2.7942809029416757,1.1824601174573857,0.9227099312461299,-0.3692163405184948
2.8258546984551405,1.2126354737638685,0.911157200235539,-0.45411698980532733
2.857428493968606,1.2523842804506102,0.896581228421243,-0.6714398838638534
2.889002289482071,1.3205255527447135,0.8731423254381006,-1.3296988201058066
2.9205760849955364,1.48537700272192,0.8232658446753758,-2.9479264048436535
2.952149880509002,1.9426177648736935,0.7198877241032795,-5.594431218732715
2.983723676022467,3.110085520199595,0.568947613593714,-8.225853505387645
3.0152974715359324,5.590677734627186,0.4243519638663509,-9.257165903019844
3.046871267049397,9.777270957925795,0.320885150835314,-8.221376480709884
3.0784450625628628,15.152414201832809,0.25776119055441904,-5.915148267452964
3.1100188580763284,19.956335023425066,0.22460429287449013,-3.09120925169452
3.141592653589793,22.0,0.21391788958093144,-0.9331222572187686
3.141592653589793,22.400000000000002,0.21199930473065645,0.4911282558479043
3.1731664491032583,20.707529412327695,0.22049274406146485,2.640514792808969
3.2047402446167235,16.268190524845284,0.24876473854610537,4.981839614924795
3.236314040130189,11.279645214234435,0.29875193435598807,6.220461720921647
3.2678878356436543,7.510657410754146,0.3661166412345035,5.603312349967697
3.2994616311571194,5.48815915516493,0.42829706384804483,3.3446678147200695
3.3310354266705846,4.829366779955404,0.45657628555307134,0.7990177355586848
3.36260922218405,4.942203246007875,0.45133409754382764,-0.898712627965466
3.3941830176975154,5.420485243706806,0.43096238159963335,-1.6334707151303915
3.4257568132109806,6.081115713567828,0.4068804396417823,-1.8735259576537102
3.4573306087244458,6.869363895860108,0.38282490568675387,-1.9517095644761948
3.488904404237911,7.781058602818047,0.3596988941961501,-1.9862856854941118
3.520478199751376,8.82741895392652,0.33770817692675453,-2.0063971960212306
3.5520519952648417,10.023992700579036,0.31691155537604393,-2.0178241995554003
3.583625790778307,11.388013699218082,0.2973270728762185,-2.0218239311142607
3.615199586291772,12.937834624506085,0.2789508236121392,-2.018983335352684
3.6467733818052372,14.692710309367655,0.2617625349950245,-2.0098093573927946
3.6783471773187024,16.67258324807004,0.24572933112505554,-1.9947891082873543
3.709920972832168,18.89781322638586,0.23080896291324943,-1.974386674151113
3.7414947683456328,21.388839855944422,0.2169525861267933,-1.9490370660602643
3.7730685638590984,24.165773903658582,0.20410709043728412,-1.9191427535461756
3.8046423593725636,27.247915904551213,0.19221700260636393,-1.8850725046977648
3.8362161548860287,30.65320319541305,0.18122600371123185,-1.8471618886663312
3.867789950399494,34.39758964876688,0.1710781086147672,-1.805714891148854
3.899363745912959,38.49436600652818,0.16171855798248597,-1.7610062138738607
3.9309375414264247,42.95343271980709,0.15309447126521325,-1.7132839372167377
3.96251133693989,47.78054145713202,0.14515530489240416,-1.6627723153958394
3.994085132453355,52.97652576334615,0.13785315465042822,-1.6096745458086217
4.02565892796682,58.536545507563986,0.13114293564500212,-1.5541754095294404
4.057232723480285,64.44937348656673,0.12498246785643945,-1.4964437212507145
4.088806518993751,70.69675556054949,0.11933249036370334,-1.43663455666163
4.120380314507216,77.25287769269563,0.11415662296557319,-1.3748912459281681
4.151954110020681,84.08397395458675,0.10942129019833019,-1.3113471357393423
4.183527905534147,91.14810869102381,0.10509561961719777,-1.246127131113166
4.215101701047612,98.39516341284481,0.10115132362116128,-1.1793490332369099
4.246675496561077,105.76705448840124,0.09756257199221409,-1.1111246921464095
4.278249292074543,113.19820131978516,0.0943058606220015,-1.0415609938537975
4.309823087588008,120.61625652422035,0.091359880545755,-0.9707607012148759
4.341396883101472,127.94309992857438,0.0887053903359564,-0.8988231668222664
4.372970678614938,135.09608728948245,0.08632509407438115,-0.8258449348226928
4.404544474128404,141.98953305647947,0.08420352647670995,-0.7519202469944102
4.436118269641868,148.53639478335754,0.0823269462516,-0.6771414668239224
4.467692065155334,154.65011561435904,0.08068323840526553,-0.6015994337770205
4.4992658606688,160.2465713058205,0.0792618259281261,-0.5253837585222841
4.530839656182264,165.24606015175493,0.07805359110158253,-0.4485830685647054
4.56241345169573,169.57526855807637,0.07705080652408301,-0.37128521259632224
4.593987247209195,173.1691423346434,0.0762470758631968,-0.2935774308732898
4.62556104272266,175.97259436992624,0.07563728428391135,-0.2155464980816119
4.657134838236125,177.94198335311913,0.07521755847440592,-0.13727884445085117
4.688708633749591,179.04630553664757,0.07498523618239346,-0.058860660308482526
4.720282429263056,179.26805189841528,0.07493884518231592,0.019622011169668382
4.751856224776521,178.6036959767698,0.07507809161174972,0.0980831885723417
4.783430020289987,177.06379244856575,0.07540385764055907,0.17643686998639713
4.815003815803452,174.6726824088458,0.07591820846531737,0.25459694969257074
4.846577611316917,171.4678174208257,0.07662440865124943,0.33247712963676007
4.878151406830383,167.4987298528603,0.07752694787142,0.4099908213494441
4.909725202343847,162.82569096676974,0.07863157611495838,0.4870510337305566
4.941298997857313,157.51810993492185,0.07994534844925179,0.5635702417411573
4.972872793370778,151.6527358600329,0.08147667942116708,0.639460230542544
5.004446588884243,145.31173055868803,0.08323540716455463,0.7146319089896649
